# M_cut = 13.050000
# M1 = 13.502000
# sigma = 1.016160
# kappa = 0.974747
# alpha = 0.964646
# z = 1.000000
# k [Mpc^-1]    P(k) [Mpc^3] 
0.010213 180908.650681
0.013256 176681.166431
0.016358 162323.824620
0.019276 145142.354491
0.022270 127585.334459
0.025277 112090.719932
0.028311 99556.001196
0.031315 90440.149875
0.034270 83883.798397
0.037276 78669.404750
0.040335 74615.248494
0.043318 71673.906040
0.046289 68867.517843
0.049274 65228.217392
0.052266 60569.320527
0.055264 55388.682513
0.058270 50322.163175
0.061277 45836.666376
0.064262 42147.980908
0.067236 39212.607228
0.070244 36903.118937
0.073232 35192.741505
0.076222 33979.884954
0.079238 33093.603016
0.082247 32303.678322
0.085227 31388.835992
0.088207 30254.037309
0.091181 28952.305914
0.094185 27547.646892
0.097188 26123.596451
0.100190 24742.380417
0.103190 23449.827188
0.106180 22284.039116
0.109170 21276.588290
0.112150 20456.677063
0.115140 19818.767095
0.118140 19331.517456
0.121120 18942.064245
0.124110 18580.514513
0.127110 18191.699981
0.130120 17743.752112
0.133120 17235.563995
0.136110 16685.251941
0.139090 16120.895445
0.142070 15569.294744
0.145070 15049.977623
0.148060 14583.015608
0.151060 14170.972142
0.154060 13813.272577
0.157060 13502.186523
0.160060 13226.796311
0.163030 12977.493736
0.166020 12739.294677
0.169020 12504.579157
0.172000 12270.236169
0.175000 12030.388738
0.178000 11786.525339
0.181000 11540.235443
0.183990 11295.182170
0.186990 11052.716554
0.189990 10816.555568
0.192960 10591.198162
0.195950 10374.392442
0.198940 10168.709162
0.201920 9975.017785
0.204930 9790.563222
0.207920 9617.983571
0.210900 9455.460924
0.213890 9301.120509
0.216880 9154.336273
0.219890 9013.396606
0.222890 8878.535693
0.225880 8749.083710
0.228870 8623.882766
0.231860 8502.241379
0.234840 8384.262702
0.237830 8268.761220
0.240820 8155.927601
0.243810 8045.593359
0.246820 7936.969404
0.249810 7831.369300
0.252800 7728.120960
0.255790 7627.141873
0.258790 7528.196873
0.261780 7431.886500
0.264760 7338.201222
0.267750 7246.537346
0.270760 7156.585798
0.273750 7069.591160
0.276740 6984.862315
0.279730 6902.396121
0.282720 6822.144037
0.285710 6744.095742
0.288700 6668.134357
0.291690 6594.246151
0.294690 6522.146854
0.297680 6452.201789
0.300670 6384.146164
0.303670 6317.674066
0.306660 6253.174130
0.309650 6190.343436
0.312650 6128.914727
0.315640 6069.225954
0.318630 6011.022585
0.321620 5954.243857
0.324610 5898.808183
0.327600 5844.689995
0.330590 5791.801418
0.333580 5740.129846
0.336580 5689.436878
0.339570 5640.010656
0.342570 5591.479738
0.345560 5544.137199
0.348550 5497.758048
0.351550 5452.179680
0.354540 5407.667603
0.357520 5364.168791
0.360510 5321.366114
0.363510 5279.238016
0.366500 5238.042660
0.369490 5197.602174
0.372500 5157.659582
0.375500 5118.553521
0.378480 5080.415510
0.381450 5043.057525
0.384450 5006.002367
0.387440 4969.721254
0.390440 4933.919571
0.393430 4898.862287
0.396420 4864.387247
0.399430 4830.281730
0.402410 4797.086602
0.405390 4764.431064
0.408390 4732.088387
0.411380 4700.387869
0.414370 4669.206850
0.417360 4638.526992
0.420360 4608.257151
0.423350 4578.551735
0.426340 4549.339969
0.429330 4520.584876
0.432330 4492.189567
0.435320 4464.319441
0.438320 4436.815354
0.441310 4409.812853
0.444300 4383.244228
0.447300 4356.987508
0.450280 4331.311896
0.453270 4305.947346
0.456260 4280.972584
0.459250 4256.368564
0.462260 4231.978389
0.465240 4208.189972
0.468230 4184.681299
0.471220 4161.513699
0.474210 4138.693911
0.477211 4116.132828
0.480190 4094.058327
0.483190 4072.150259
0.486190 4050.562526
0.489180 4029.350525
0.492170 4008.451480
0.495170 3987.776914
0.498160 3967.454390
0.501140 3947.490766
0.504131 3927.731189
0.507130 3908.192292
0.510120 3888.980188
0.513120 3869.962190
0.516110 3851.272534
0.519100 3832.829747
0.522090 3814.636993
0.525090 3796.617724
0.528080 3778.902781
0.531060 3761.476487
0.534050 3744.225607
0.537040 3727.187953
0.540040 3710.320843
0.543030 3693.720095
0.546021 3677.325512
0.549020 3661.089975
0.552010 3645.100635
0.555000 3629.309356
0.558000 3613.660901
0.560990 3598.250827
0.563980 3583.023278
0.566970 3567.986836
0.569960 3553.129502
0.572950 3538.437821
0.575950 3523.877432
0.578941 3509.531943
0.581930 3495.354864
0.584919 3481.345007
0.587920 3467.436705
0.590910 3453.733445
0.593890 3440.225096
0.596890 3426.782291
0.599879 3413.529588
0.602870 3400.414296
0.605860 3387.452119
0.608859 3374.582439
0.611850 3361.888782
0.614850 3349.292133
0.617840 3336.866190
0.620830 3324.569437
0.623820 3312.407578
0.626810 3300.361006
0.629800 3288.440178
0.632791 3276.642172
0.635780 3264.965196
0.638780 3253.370916
0.641780 3241.887254
0.644760 3230.593914
0.647749 3219.379072
0.650750 3208.232914
0.653740 3197.233528
0.656730 3186.341567
0.659721 3175.553558
0.662711 3164.870273
0.665710 3154.259401
0.668700 3143.782870
0.671690 3133.399344
0.674680 3123.117301
0.677681 3112.895984
0.680671 3102.807096
0.683660 3092.815687
0.686660 3082.876070
0.689639 3073.102475
0.692630 3063.380872
0.695630 3053.715636
0.698630 3044.139840
0.701620 3034.679792
0.704610 3025.305704
0.707600 3016.016674
0.710590 3006.812974
0.713581 2997.685735
0.716571 2988.640881
0.719560 2979.680327
0.722560 2970.762763
0.725549 2961.957693
0.728539 2953.225032
0.731540 2944.535405
0.734531 2935.947623
0.737520 2927.438957
0.740510 2919.003589
0.743500 2910.638641
0.746490 2902.344247
0.749480 2894.120943
0.752480 2885.937648
0.755470 2877.853237
0.758461 2869.830127
0.761449 2861.882309
0.764450 2853.966254
0.767439 2846.145093
0.770430 2838.384051
0.773419 2830.687945
0.776410 2823.049674
0.779399 2815.476256
0.782400 2807.930253
0.785389 2800.477801
0.788381 2793.073993
0.791371 2785.735122
0.794370 2778.430609
0.797359 2771.210832
0.800341 2764.060309
0.803339 2756.929987
0.806340 2749.847577
0.809319 2742.866948
0.812320 2735.890113
0.815310 2728.986515
0.818301 2722.135205
0.821300 2715.314965
0.824280 2708.588180
0.827281 2701.866226
0.830269 2695.222470
0.833261 2688.617108
0.836250 2682.069679
0.839240 2675.564771
0.842240 2669.082755
0.845230 2662.669776
0.848221 2656.298146
0.851211 2649.975037
0.854211 2643.671823
0.857200 2637.437562
0.860189 2631.243773
0.863179 2625.090018
0.866170 2618.976824
0.869161 2612.903977
0.872160 2606.856836
0.875149 2600.868536
0.878140 2594.912558
0.881140 2588.981146
0.884130 2583.107108
0.887119 2577.270911
0.890111 2571.465194
0.893100 2565.702507
0.896099 2559.955716
0.899090 2554.257899
0.902070 2548.614623
0.905070 2542.966714
0.908061 2537.366098
0.911050 2531.806327
0.914040 2526.273010
0.917039 2520.753129
0.920030 2515.279778
0.923020 2509.838669
0.926011 2504.423196
0.929001 2499.038532
0.932000 2493.664843
0.934990 2488.334329
0.937981 2483.027189
0.940979 2477.735318
0.943970 2472.477612
0.946961 2467.241264
0.949951 2462.031010
0.952941 2456.838965
0.955930 2451.671028
0.958919 2446.520797
0.961909 2441.387518
0.964910 2436.249998
0.967910 2431.134314
0.970890 2426.068154
0.973879 2421.002149
0.976880 2415.927108
0.979869 2410.883350
0.982861 2405.840979
0.985859 2400.797867
0.988849 2395.772829
0.991841 2390.742893
0.994830 2385.718925
